id;value
100;-4.23435
102;3.76984
104;10.6786
106;14.7855
108;15.177
110;11.9704
112;6.21069
114;-0.504788
116;-6.52257
118;-10.5654
120;-11.9892
122;-10.8215
124;-7.59989
126;-3.14476
128;1.63698
130;5.9058
132;9.03079
134;10.7026
136;10.9692
138;10.16
140;8.72272
142;7.05261
144;5.39661
146;3.85341
148;2.43989
150;1.1437
152;-0.0308755
154;-1.05074
156;-1.87287
158;-2.46565
160;-2.85209
162;-3.14163
164;-3.51861
166;-4.14341
168;-5.06807
170;-6.20853
172;-7.31995
174;-8.03188
176;-7.9665
178;-6.93708
180;-5.06778
182;-2.77455
184;-0.623983
186;0.918863
188;1.6882
190;1.83108
192;1.66888
194;1.51783
196;1.57687
198;1.90596
200;2.4543
202;3.09677
204;3.67152
206;4.02211
208;4.04161
210;3.69763
212;3.03316
214;2.15598
216;1.22368
218;0.411272
220;-0.14369
222;-0.397266
224;-0.408437
226;-0.286296
228;-0.117343
230;0.0604604
232;0.220649
234;0.303952
236;0.227602
238;-0.0489568
240;-0.46277
242;-0.861759
244;-1.08389
246;-1.05641
248;-0.827367
250;-0.510359
252;-0.224999
254;-0.0680941
256;-0.0943824
258;-0.299099
260;-0.617445
262;-0.948275
264;-1.18783
266;-1.24669
268;-1.05328
270;-0.585305
272;0.0659143
274;0.662226
276;0.895262
278;0.567308
280;-0.251757
282;-1.2262
284;-1.9258
286;-2.0543
288;-1.59066
290;-0.77618
292;0.029043
294;0.523971
296;0.61797
298;0.47546
300;0.408889
302;0.658094
304;1.2065
306;1.83617
308;2.27634
310;2.3283
312;1.94917
314;1.2539
316;0.447068
318;-0.262106
320;-0.731317
322;-0.935725
324;-0.96277
326;-0.953457
328;-1.01262
330;-1.13573
332;-1.20896
334;-1.08965
336;-0.713406
338;-0.152195
340;0.416769
342;0.807092
344;0.920528
346;0.785168
348;0.517422
350;0.238438
352;0.00153564
354;-0.225315
356;-0.509692
358;-0.874349
360;-1.25166
362;-1.51136
364;-1.549
366;-1.36157
368;-1.04639
370;-0.727005
372;-0.466705
374;-0.241158
376;0.0208878
378;0.377162
380;0.839271
382;1.37508
384;1.91432
386;2.36275
388;2.61375
390;2.57561
392;2.2357
394;1.7006
396;1.16428
398;0.813686
400;0.727936
402;0.843346
404;0.989026
406;0.96578
408;4.58831
410;0.17183
412;-5.6903
414;-11.2431
416;-14.6918
418;-14.1809
420;-9.97442
422;-3.92691
424;2.54055
426;8.01228
428;11.1762
430;12.0682
432;11.7585
434;11.0444
436;10.5094
438;10.674
440;11.1606
442;10.9654
444;9.67124
446;7.62709
448;5.41651
450;3.58537
452;2.54884
454;2.03728
456;0.365857
458;-3.48967
460;-8.00928
462;-10.9792
464;-11.2107
466;-8.3289
468;-2.78161
470;2.38728
472;3.59398
474;0.447398
476;-5.93894
478;-13.4582
480;-16.7947
482;-10.807
484;2.34306
486;17.4726
488;30.8368
490;37.38
492;33.8699
494;23.5444
496;11.3882
498;-0.498955
500;-11.0626
502;-19.7864
504;-27.9138
506;-36.0811
508;-40.8542
510;-35.9452
512;-18.6213
514;7.55884
516;38.2912
518;64.0496
520;72.6483
522;62.9706
524;42.5042
526;17.1127
528;-6.91842
530;-23.6019
532;-32.5348
534;-35.5116
536;-33.3182
538;-27.9187
540;-21.2828
542;-14.824
544;-11.1502
546;-11.7771
548;-15.5282
550;-20.6391
552;-24.062
554;-21.9599
556;-14.1066
558;-3.8188
560;5.90513
562;12.0589
564;12.3081
566;8.76265
568;6.06404
570;6.52784
572;10.334
574;16.7058
576;21.261
578;18.963
580;10.5662
582;0.727761
584;-7.08012
586;-10.1426
588;-6.55242
590;-0.167265
592;2.2483
594;-0.835998
596;-5.89785
598;-9.53937
600;-8.30356
602;1.05202
604;14.3957
606;21.286
608;16.6601
610;2.69468
612;-16.8457
614;-33.5218
616;-35.6909
618;-21.7984
620;-0.888409
622;19.223
624;31.6594
626;30.4924
628;19.369
630;7.1454
632;-1.59058
634;-5.56727
636;-4.80904
638;-2.58309
640;-2.1037
642;-1.92064
644;0.90062
646;6.99298
648;13.149
650;14.8156
652;9.86823
654;-2.20085
656;-17.554
658;-27.8511
660;-27.9472
662;-20.3941
664;-9.70814
666;0.810654
668;8.74104
670;13.3913
672;15.1819
674;14.4313
676;7.57964
678;-10.3984
680;-35.0972
682;-54.7278
684;-60.9421
686;-46.2872
688;-5.82398
690;45.7544
692;85.8574
694;104.778
696;98.1659
698;66.2313
700;22.6414
702;-18.38
704;-49.9333
706;-64.4734
708;-60.4028
710;-42.8974
712;-16.7538
714;8.87404
716;22.9159
718;23.8692
720;14.4373
722;-2.37931
724;-18.5097
726;-27.3983
728;-29.3773
730;-26.2186
732;-19.3657
734;-11.5799
736;-4.75959
738;0.794115
740;4.79393
742;7.19264
744;8.73139
746;9.69155
748;9.66445
750;8.48535
752;6.44565
754;3.60284
756;1.58181
758;3.63192
760;9.76091
762;16.1164
764;19.4844
766;17.1607
768;6.16708
770;-10.3048
772;-24.9099
774;-33.3309
776;-32.2351
778;-20.3538
780;-3.33647
782;11.7732
784;21.5107
786;23.002
788;16.355
790;6.13
792;-4.15195
794;-12.9373
796;-18.5924
798;-19.8255
800;-15.3268
802;-4.99858
804;8.70214
806;21.977
808;30.1232
810;28.6445
812;18.8244
814;5.77056
816;-6.57527
818;-14.9085
820;-17.6553
822;-16.7111
824;-14.5613
826;-11.576
828;-7.1338
830;-1.05295
832;5.81693
834;12.099
836;15.6939
838;14.2914
840;8.2009
842;-0.412254
844;-9.14781
846;-15.0635
848;-16.0083
850;-12.5709
852;-6.87
854;-1.30908
856;1.59957
858;1.70292
860;1.83843
862;4.31093
864;9.21703
866;15.3247
868;19.5482
870;18.0594
872;10.7819
874;1.41333
876;-6.07756
878;-8.48763
880;-4.18843
882;3.35564
884;8.21242
886;7.00473
888;-0.797751
890;-13.3393
892;-24.8652
894;-30.0705
896;-27.804
898;-17.8925
900;-4.00782
902;8.29236
904;15.7851
906;17.72
908;14.8637
910;9.88513
912;6.02087
914;4.77731
916;6.44241
918;10.0928
920;13.3868
922;14.4481
924;12.6092
926;7.68583
928;0.0207252
930;-9.8693
932;-21.0235
934;-31.7033
936;-39.7018
938;-42.317
940;-36.8685
942;-22.7821
944;-2.18843
946;19.8498
948;36.7502
950;44.3224
952;42.4015
954;33.3168
956;20.8934
958;9.14135
960;-0.150107
962;-7.36084
964;-13.269
966;-17.6307
968;-19.1691
970;-16.697
972;-10.085
974;-1.38687
976;5.98027
978;9.36762
980;7.60505
982;1.62224
984;-5.3202
986;-9.45467
988;-8.51262
990;-2.40369
992;5.89266
994;11.4413
996;10.7504
998;3.61923
1000;-6.94743
1002;-15.789
1004;-18.4225
1006;-13.6776
1008;-3.574
1010;7.89964
1012;16.1193
1014;17.8984
1016;13.0327
1018;4.00654
1020;-4.86043
1022;-9.3365
1024;-7.82855
1026;-2.40508
1028;2.37701
1030;2.25758
1032;-3.59589
1034;-11.6178
1036;-16.2447
1038;-13.599
1040;-4.1211
1042;7.79394
1044;17.0758
1046;21.2796
1048;21.3494
1050;19.5178
1052;16.2431
1054;9.32542
1056;-3.49188
1058;-20.6296
1060;-35.826
1062;-41.6174
1064;-34.372
1066;-17.105
1068;2.09798
1070;15.0957
1072;18.6412
1074;15.315
1076;10.3289
1078;7.14066
1080;5.46954
1082;2.96731
1084;-1.46609
1086;-5.88416
1088;-6.64802
1090;-1.44373
1092;8.45688
1094;18.4949
1096;23.4924
1098;20.8921
1100;12.0075
1102;0.614502
1104;-9.31022
1106;-15.26
1108;-16.606
1110;-14.0734
1112;-9.01715
1114;-3.02162
1116;2.12509
1118;4.62831
1120;3.36763
1122;-1.17172
1124;-6.55808
1126;-9.34952
1128;-7.06952
1130;-0.138759
1132;7.91186
1134;12.3456
1136;10.2216
1138;2.44358
1140;-6.7335
1142;-12.4085
1144;-12.3655
1146;-8.37537
1148;-4.41373
1150;-3.24274
1152;-4.28149
1154;-4.51264
1156;-0.783526
1158;7.26567
1160;16.2516
1162;20.8719
1164;17.8032
1166;8.75251
1168;-1.83496
1170;-9.04574
1172;-9.85342
1174;-4.60147
1176;3.68401
1178;11.2282
1180;15.2414
1182;14.4553
1184;9.33479
1186;1.42209
1188;-7.3683
1190;-15.0076
1192;-19.6026
1194;-19.8115
1196;-15.0917
1198;-5.89388
1200;5.61194
1202;15.6938
1204;20.4714
1206;17.475
1208;6.73157
1210;-8.75602
1212;-23.7767
1214;-32.8307
1216;-32.4182
1218;-22.6993
1220;-7.0706
1222;9.54095
1224;22.4202
1226;28.2315
1228;25.8535
1230;16.9181
1232;5.38185
1234;-3.96417
1236;-7.60135
1238;-5.17506
1240;0.0556092
1242;3.33122
1244;1.47454
1246;-4.89643
1248;-11.6562
1250;-13.7372
1252;-8.53051
1254;2.01128
1256;12.4479
1258;17.3313
1260;14.4669
1262;6.02458
1264;-2.99136
1266;-8.04329
1268;-7.77894
1270;-4.40185
1272;-1.67656
1274;-2.01284
1276;-5.06344
1278;-8.40082
1280;-9.44123
1282;-7.1359
1284;-2.41321
1286;2.65735
1288;6.30253
1290;8.02603
1292;8.44422
1294;8.38033
1296;8.00398
1298;6.76713
1300;4.07138
1302;0.147412
1304;-3.70339
1306;-5.81503
1308;-5.23642
1310;-2.47724
1312;0.711163
1314;2.47453
1316;1.95077
1318;-0.389888
1320;-3.19093
1322;-5.0106
1324;-5.05167
1326;-3.44176
1328;-0.972923
1330;1.50751
1332;3.56323
1334;5.17798
1336;6.39868
1338;7.03194
1340;6.6438
1342;4.78387
1344;1.34432
1346;-3.18713
1348;-7.95547
1350;-11.9424
1352;-14.1279
1354;-13.6969
1356;-10.4144
1358;-5.07474
1360;0.665945
1362;5.03294
1364;6.93745
1366;6.42061
1368;4.51385
1370;2.62116
1372;1.65361
1374;1.49867
1376;1.12154
1378;-0.639512
1380;-4.04697
1382;-7.81876
1384;-9.53637
1386;-7.21632
1388;-1.17784
1390;5.33221
1392;7.8625
1394;4.15834
1396;-3.01918
1398;-6.20258
1400;2.16724
1402;23.2172
1404;48.186
1406;62.4301
1408;53.8143
1410;20.7177
1412;-24.6404
1414;-63.4086
1416;-81.4812
1418;-76.9139
1420;-58.7047
1422;-39.1357
1424;-25.5444
1426;-16.3025
1428;-4.20975
1430;15.662
1432;40.9511
1434;63.2964
1436;74.1785
1438;70.1534
1440;53.9221
1442;32.3964
1444;12.8325
1446;-0.889966
1448;-8.93001
1450;-13.575
1452;-16.8588
1454;-19.5751
1456;-21.5398
1458;-22.2829
1460;-21.5802
1462;-19.6238
1464;-17.0841
1466;-14.5722
1468;-12.1891
1470;-9.57863
1472;-6.37907
1474;-2.66228
1476;0.820218
1478;3.12686
1480;3.59576
1482;2.20959
1484;-0.267231
1486;-2.31665
1488;-2.26008
1490;0.638511
1492;5.46054
1494;9.92468
1496;11.6135
1498;9.51757
1500;4.82277
1502;0.058206
1504;-2.29912
1506;-1.05089
1508;3.15839
1510;8.38802
1512;12.4898
1514;13.9501
1516;12.1927
1518;7.68778
1520;1.86698
1522;-3.43885
1524;-6.75641
1526;-7.51782
1528;-6.14049
1530;-3.79787
1532;-1.88421
1534;-1.42504
1536;-2.74344
1538;-5.41202
1540;-8.43943
1542;-10.6478
1544;-11.0869
1546;-9.38099
1548;-5.86439
1550;-1.49909
1552;2.45288
1554;4.86852
1556;5.21337
1558;3.92353
1560;2.23985
1562;1.39692
1564;1.7558
1566;2.62137
1568;2.93706
1570;2.19248
1572;0.690638
1574;-0.987708
1576;-2.64216
1578;-4.49576
1580;-6.65184
1582;-8.57785
1584;-9.30097
1586;-8.08001
1588;-4.90911
1590;-0.536892
1592;4.06374
1594;8.05449
1596;10.7819
1598;11.8714
1600;11.2858
1602;9.23354
1604;6.03503
1606;2.25071
1608;-1.11737
1610;-3.155
1612;-3.54518
1614;-2.664
1616;-1.24024
1618;0.113342
1620;1.097
1622;1.66617
1624;1.84861
1626;1.72525
1628;1.5299
1630;1.55809
1632;1.84852
1634;1.87736
1636;0.650951
1638;-2.64442
1640;-7.8854
1642;-13.616
1644;-17.5015
1646;-17.4764
1648;-12.8108
1650;-4.61848
1652;4.71452
1654;12.2747
1656;15.9725
1658;15.4209
1660;11.7279
1662;6.64276
1664;1.76039
1666;-1.22072
1668;-1.49505
1670;0.266043
1672;2.50693
1674;3.8507
1676;3.67678
1678;2.016
1680;-0.561021
1682;-3.24739
1684;-5.16793
1686;-5.78632
1688;-5.17592
1690;-3.82282
1692;-2.2607
1694;-0.923476
1696;-0.107743
1698;0.136674
1700;0.0167975
1702;-0.2034
1704;-0.531219
1706;-1.38956
1708;-3.33202
1710;-6.46301
1712;-10.0028
1714;-12.4229
1716;-12.1868
1718;-8.60062
1720;-2.24768
1722;5.24987
1724;11.8828
1726;15.9802
1728;16.7824
1730;14.5544
1732;10.2567
1734;5.11502
1736;0.328115
1738;-3.18255
1740;-4.93507
1742;-4.8625
1744;-3.23351
1746;-0.599098
1748;2.21719
1750;4.3224
1752;5.04457
1754;4.12075
1756;1.80247
1758;-1.16683
1760;-3.82615
1762;-5.47093
1764;-5.92344
1766;-5.49329
1768;-4.72989
1770;-4.08642
1772;-3.66638
1774;-3.22863
1776;-2.41086
1778;-1.06174
1780;0.605417
1782;2.17009
1784;3.29488
1786;3.88905
1788;4.03787
1790;3.84539
1792;3.34439
1794;2.5061
1796;1.3098
1798;-0.189236
1800;-1.79266
1802;-3.16725
1804;-3.92776
1806;-3.79174
1808;-2.79249
1810;-1.29063
1812;0.177707
1814;1.13945
1816;1.35376
1818;0.913945
1820;0.167927
1822;-0.467604
1824;-0.709326
1826;-0.529866
1828;-0.134935
1830;0.156868
1832;0.20974
1834;0.143457
1836;0.128498
1838;0.233404
1840;0.394569
1842;0.486425
1844;0.407584
1846;0.202543
1848;0.0952193
1850;0.36149
1852;1.10683
1854;2.14128
1856;3.08387
1858;3.60091
1860;3.58281
1862;3.13045
1864;2.42518
1866;1.57396
1868;0.580246
1870;-0.567018
1872;-1.79656
1874;-2.91635
1876;-3.71604
1878;-4.13013
1880;-4.30295
1882;-4.48013
1884;-4.79166
1886;-5.13204
1888;-5.23287
1890;-4.77803
1892;-3.55232
1894;-1.60038
1896;0.744007
1898;3.00093
1900;4.76593
1902;5.82275
1904;6.14447
1906;5.89836
1908;5.33628
1910;4.68668
1912;4.0563
1914;3.41275
1916;2.62887
1918;1.55275
1920;0.129999
1922;-1.5151
1924;-3.10255
1926;-4.30269
1928;-4.86883
1930;-4.73359
1932;-4.03405
1934;-3.04764
1936;-2.06335
1938;-1.24238
1940;-0.578178
1942;0.0140189
1944;0.556795
1946;0.9166
1948;0.869546
1950;0.288244
1952;-0.699079
1954;-1.69332
1956;-2.2064
1958;-1.91186
1960;-0.789246
1962;0.868359
1964;2.58588
1966;3.84307
1968;4.26032
1970;3.69506
1972;2.22647
1974;0.139799
1976;-2.09948
1978;-3.92873
1980;-4.80092
1982;-4.29618
1984;-2.25949
1986;1.04988
1988;4.99566
1990;8.79383
1992;11.7624
1994;13.5027
1996;13.8725
1998;12.8788
2000;10.5052
2002;6.69418
2004;1.47518
2006;-4.90136
2008;-11.8789
2010;-18.6417
2012;-24.2447
2014;-27.8116
2016;-28.7549
2018;-26.8456
2020;-22.3087
2022;-15.7246
2024;-7.9666
2026;0.0716958
2028;7.59244
2030;13.9523
2032;18.7301
2034;21.6994
2036;22.8056
2038;22.2081
2040;20.3052
2042;17.6942
2044;14.8923
2046;12.1787
2048;9.50387
2050;6.59114
2052;3.25283
2054;-0.455684
2056;-4.22719
2058;-7.64777
2060;-10.4372
2062;-12.5588
2064;-14.1497
2066;-15.2941
2068;-15.8114
2070;-15.2303
2072;-12.9402
2074;-8.58907
2076;-2.43511
2078;4.52915
2080;10.7081
2082;14.4123
2084;14.4469
2086;10.5903
2088;3.75005
2090;-4.27799
2092;-11.3685
2094;-15.6901
2096;-16.202
2098;-12.882
2100;-6.58784
