id;value
100;-0.676088
102;-0.376928
104;0.227196
106;0.856489
108;1.26177
110;1.31296
112;1.02607
114;0.53297
116;0.00620034
118;-0.438632
120;-0.818342
122;-1.26773
124;-1.91428
126;-2.7238
128;-3.45406
130;-3.77947
132;-3.50617
134;-2.70732
136;-1.67847
138;-0.759684
140;-0.166497
142;0.0715994
144;0.0553882
146;-0.0817819
148;-0.260292
150;-0.487679
152;-0.823392
154;-1.25321
156;-1.58092
158;-1.57699
160;-1.14174
162;-0.37241
164;0.475335
166;1.14195
168;1.51269
170;1.66937
172;1.79948
174;2.04671
176;2.41113
178;2.75318
180;2.88838
182;2.69946
184;2.19788
186;1.50633
188;0.784643
190;0.149145
192;-0.36771
194;-0.800221
196;-1.19523
198;-1.56009
200;-1.84613
202;-1.97503
204;-1.88462
206;-1.56582
208;-1.07582
210;-0.528656
212;-0.0680807
214;0.175474
216;0.140185
218;-0.12701
220;-0.479012
222;-0.736366
224;-0.778223
226;-0.596151
228;-0.273097
230;0.0908227
232;0.442168
234;0.778845
236;1.10407
238;1.38718
240;1.57078
242;1.61543
244;1.53807
246;1.39749
248;1.23604
250;1.03529
252;0.732042
254;-0.271293
256;2.27116
258;3.75349
260;3.6085
262;1.59548
264;-1.98307
266;-5.83891
268;-8.427
270;-8.69983
272;-5.71329
274;0.285123
276;7.18774
278;13.1063
280;16.5148
282;16.4197
284;13.4028
286;9.59033
288;6.71001
290;5.18241
292;4.96797
294;5.36471
296;4.90073
298;2.86903
300;0.232909
302;-1.74638
304;-2.71332
306;-3.10308
308;-3.43083
310;-4.02638
312;-5.17717
314;-6.41301
316;-6.1827
318;-3.91247
320;-0.864138
322;1.41169
324;1.06485
326;-4.06347
328;-13.1554
330;-21.0289
332;-22.7993
334;-16.5892
336;-1.69296
338;18.6082
340;36.2885
342;45.5623
344;44.6623
346;33.3997
348;15.0278
350;-4.81103
352;-22.4494
354;-36.3741
356;-45.6632
358;-48.411
360;-42.4649
362;-26.639
364;-1.08704
366;31.275
368;60.9806
370;77.3397
372;77.1547
374;61.94
376;35.2546
378;5.69545
380;-18.2377
382;-33.3952
384;-39.0552
386;-36.3689
388;-29.1921
390;-21.0309
392;-13.9848
394;-9.8126
396;-8.86839
398;-10.0388
400;-12.2575
402;-14.0485
404;-13.8275
406;-11.339
408;-7.07699
410;-1.71306
412;3.34328
414;6.89107
416;8.85412
418;9.47052
420;9.39245
422;9.99597
424;11.8307
426;13.6842
428;14.0143
430;11.7998
432;6.21092
434;-1.94486
436;-9.4847
438;-13.8308
440;-14.4231
442;-11.6376
444;-6.99723
446;-2.99347
448;-0.714478
450;1.67669
452;6.06293
454;11.5254
456;15.556
458;15.9364
460;10.098
462;-2.75145
464;-17.5588
466;-27.5324
468;-29.5116
470;-22.4501
472;-7.8208
474;8.37083
476;20.3984
478;26.2126
480;25.5005
482;19.4025
484;10.2972
486;-0.0056414
488;-9.18931
490;-15.2457
492;-16.5235
494;-11.7006
496;-1.74183
498;10.4942
500;20.6931
502;24.0388
504;16.4353
506;0.240842
508;-16.2572
510;-27.1676
512;-29.4473
514;-21.8606
516;-9.06905
518;1.69785
520;7.79165
522;10.3897
524;10.5938
526;8.18331
528;2.71843
530;-6.61138
532;-21.0707
534;-37.293
536;-44.6661
538;-35.3454
540;-10.4355
542;25.8442
544;63.5177
546;87.2355
548;88.9995
550;70.6613
552;36.9597
554;-2.91757
556;-36.9438
558;-58.1774
560;-62.5902
562;-49.5708
564;-27.0701
566;-4.01786
568;13.3136
570;18.8498
572;12.3927
574;0.154008
576;-12.5246
578;-22.2529
580;-26.3041
582;-25.1254
584;-21.1688
586;-15.4536
588;-7.86292
590;1.23468
592;9.80739
594;15.4107
596;16.7435
598;13.3916
600;6.50508
602;-0.397869
604;-4.11048
606;-3.76876
608;0.363628
610;6.52843
612;11.5719
614;13.5594
616;12.4228
618;8.68104
620;3.63109
622;-1.22557
624;-5.5645
626;-9.60472
628;-13.2167
630;-15.1612
632;-13.8667
634;-8.66652
636;0.292416
638;10.429
640;16.4109
642;15.0225
644;7.71145
646;-2.43534
648;-10.5838
650;-11.2067
652;-3.94146
654;6.60812
656;15.8545
658;20.1613
660;17.1705
662;9.17555
664;0.666893
666;-5.98151
668;-10.0499
670;-11.8346
672;-12.9114
674;-14.5659
676;-15.5778
678;-13.5779
680;-7.84296
682;0.623191
684;9.71724
686;15.7751
688;15.7665
690;10.4347
692;2.51378
694;-5.3336
696;-10.4193
698;-11.4818
700;-9.7465
702;-7.00919
704;-4.33161
706;-2.41083
708;-1.0868
710;0.789417
712;4.16911
714;9.37599
716;15.8607
718;21.1483
720;22.1202
722;17.5619
724;8.07153
726;-3.88865
728;-13.4292
730;-16.5684
732;-13.3001
734;-5.91995
736;1.95191
738;6.19668
740;4.97442
742;-0.0674145
744;-6.57358
746;-12.1609
748;-13.9598
750;-12.2498
752;-9.03356
754;-5.86753
756;-4.26416
758;-4.68085
760;-5.74779
762;-5.14273
764;-1.11286
766;7.06922
768;18.147
770;28.6713
772;35.0622
774;35.114
776;28.2225
778;15.9394
780;1.05685
782;-14.1793
784;-27.8918
786;-38.2146
788;-43.3633
790;-41.9612
792;-33.3515
794;-17.6363
796;2.25692
798;20.8387
800;33.4952
802;37.7949
804;33.7602
806;24.0436
808;12.162
810;1.30699
812;-6.2333
814;-9.85805
816;-10.3324
818;-8.94153
820;-7.23041
822;-6.72624
824;-8.16389
826;-11.0939
828;-13.8497
830;-14.1383
832;-10.597
834;-3.78421
836;4.04731
838;9.89655
840;11.5079
842;8.94365
844;4.32178
846;0.384025
848;-0.804662
850;0.968656
852;3.87006
854;5.51568
856;4.73129
858;2.10356
860;-0.470052
862;-1.09975
864;0.285994
866;1.58426
868;0.357771
870;-4.10316
872;-9.98881
874;-13.6532
876;-11.8957
878;-4.63884
880;4.51603
882;10.519
884;9.87201
886;2.60081
888;-7.4618
890;-14.8065
892;-15.3236
894;-8.19326
896;4.00998
898;16.7776
900;25.6451
902;27.7908
904;22.482
906;10.9872
908;-3.38383
910;-16.209
912;-23.5303
914;-23.3959
916;-16.8025
918;-7.29461
920;0.694923
922;4.07309
924;2.6215
926;-1.28741
928;-4.51828
930;-5.17568
932;-3.51854
934;-1.28808
936;-0.0659261
938;0.0373056
940;0.627087
942;3.76456
944;10.0806
946;17.6532
948;22.666
950;21.5636
952;13.1673
954;-0.371354
956;-14.3264
958;-23.5129
960;-24.6286
962;-17.6897
964;-5.82444
966;6.17472
968;13.8628
970;15.1669
972;10.9742
974;4.44203
976;-0.719483
978;-2.26817
980;-0.486099
982;2.16833
984;2.6958
986;-0.464469
988;-6.39174
990;-12.2409
992;-14.9767
994;-13.1702
996;-7.87646
998;-1.81745
1000;2.5519
1002;4.38644
1004;4.42526
1006;4.09585
1008;4.45983
1010;5.71655
1012;7.39863
1014;8.95364
1016;9.955
1018;10.0102
1020;8.7896
1022;5.82654
1024;1.31934
1026;-3.5155
1028;-7.14933
1030;-8.36983
1032;-6.63013
1034;-2.44199
1036;2.38517
1038;5.64566
1040;5.91466
1042;3.06677
1044;-1.56544
1046;-5.57526
1048;-6.58045
1050;-3.73176
1052;1.14734
1054;4.33776
1056;2.57917
1058;-4.91096
1060;-15.6723
1062;-24.8247
1064;-27.3266
1066;-20.6571
1068;-6.43224
1070;10.2216
1072;23.3152
1074;28.6672
1076;25.3984
1078;16.222
1080;5.89713
1082;-1.24517
1084;-3.22512
1086;-1.01884
1088;2.26609
1090;3.24609
1092;0.314129
1094;-5.42034
1096;-10.8328
1098;-12.5917
1100;-9.10046
1102;-1.54579
1104;6.67123
1106;11.8577
1108;11.903
1110;7.10491
1112;-0.103383
1114;-6.61549
1116;-10.2464
1118;-10.4434
1120;-8.1589
1122;-5.01353
1124;-2.3386
1126;-0.688135
1128;0.114189
1130;0.548253
1132;0.976495
1134;1.50235
1136;2.06526
1138;2.60325
1140;3.05848
1142;3.29248
1144;3.15224
1146;2.51772
1148;1.45187
1150;0.319087
1152;-0.381515
1154;-0.386243
1156;0.100561
1158;0.579023
1160;0.489609
1162;-0.367081
1164;-1.63298
1166;-2.59072
1168;-2.5918
1170;-1.48824
1172;0.223487
1174;1.68485
1176;2.26384
1178;1.94131
1180;1.35364
1182;1.3824
1184;2.49491
1186;4.35259
1188;5.87508
1190;5.78291
1192;3.3116
1194;-1.25973
1196;-6.50183
1198;-10.5553
1200;-12.1145
1202;-10.9198
1204;-7.6932
1206;-3.58407
1208;0.38348
1210;3.53718
1212;5.67312
1214;6.9627
1216;7.51154
1218;7.05328
1220;5.12302
1222;1.40895
1224;-3.87465
1226;-9.62199
1228;-13.7059
1230;-13.8339
1232;-9.08274
1234;-1.10398
1236;6.22071
1238;9.12892
1240;6.85089
1242;2.88552
1244;2.86203
1246;9.92245
1248;21.3874
1250;29.3012
1252;25.0013
1254;5.59207
1256;-22.302
1258;-45.2554
1260;-50.8896
1262;-35.6417
1264;-6.68606
1266;22.1026
1268;37.7447
1270;34.9342
1272;17.7491
1274;-4.04067
1276;-20.6758
1278;-26.6053
1280;-21.8152
1282;-9.98447
1284;4.37033
1286;17.7561
1288;27.9209
1290;33.5094
1292;33.9253
1294;29.3934
1296;20.9477
1298;9.97923
1300;-1.96702
1302;-13.3494
1304;-22.6072
1306;-28.3432
1308;-29.5479
1310;-25.9603
1312;-18.5708
1314;-9.2962
1316;-0.363115
1318;6.48188
1320;10.2578
1322;10.6103
1324;7.87429
1326;3.0995
1328;-2.31876
1330;-7.06136
1332;-10.144
1334;-10.7819
1336;-8.50797
1338;-3.56138
1340;2.89655
1342;8.95724
1344;12.6211
1346;12.6428
1348;9.13814
1350;3.5732
1352;-1.87935
1354;-5.05262
1356;-4.52933
1358;-0.34632
1360;5.96553
1362;12.0693
1364;15.7512
1366;15.739
1368;12.217
1370;6.65125
1372;1.00972
1374;-3.07647
1376;-4.90898
1378;-4.9072
1380;-4.32001
1382;-4.54248
1384;-6.31141
1386;-9.24572
1388;-12.066
1390;-13.3904
1392;-12.5459
1394;-9.81312
1396;-6.05559
1398;-2.15333
1400;1.35907
1402;4.25073
1404;6.30048
1406;7.19079
1408;6.7427
1410;5.07046
1412;2.60083
1414;-0.0227247
1416;-2.02943
1418;-2.72214
1420;-1.85163
1422;0.0917748
1424;1.97487
1426;2.56029
1428;1.16379
1430;-2.01764
1432;-6.03912
1434;-9.57882
1436;-11.3667
1438;-10.5805
1440;-7.1709
1442;-1.80496
1444;4.45672
1446;10.5569
1448;15.6401
1450;18.9826
1452;19.8209
1454;17.4975
1456;12.0083
1458;4.28124
1460;-3.93164
1462;-10.4708
1464;-13.6821
1466;-13.2293
1468;-10.1007
1470;-6.03073
1472;-2.664
1474;-0.82928
1476;-0.284546
1478;0.0233602
1480;1.27486
1482;4.00457
1484;7.67226
1486;10.784
1488;11.5535
1490;8.85864
1492;2.88549
1494;-4.83971
1496;-11.9156
1498;-15.9224
1500;-15.5106
1502;-11.0012
1504;-4.02254
1506;3.35636
1508;9.09937
1510;11.8059
1512;11.412
1514;8.80721
1516;5.093
1518;1.28917
1520;-1.61243
1522;-3.01894
1524;-2.81141
1526;-1.20258
1528;1.21962
1530;3.64039
1532;5.27184
1534;5.54286
1536;4.19834
1538;1.52221
1540;-1.69812
1542;-4.46435
1544;-5.85666
1546;-5.38753
1548;-3.22902
1550;-0.144978
1552;2.785
1554;4.50848
1556;4.39256
1558;2.48888
1560;-0.499651
1562;-3.51901
1564;-5.57755
1566;-6.09384
1568;-5.03558
1570;-2.94532
1572;-0.798484
1574;0.361659
1576;-0.146762
1578;-2.36946
1580;-5.65071
1582;-8.82193
1584;-10.6375
1586;-10.2819
1588;-7.67566
1590;-3.43182
1592;1.41063
1594;5.72009
1596;8.63002
1598;9.81744
1600;9.51465
1602;8.30107
1604;6.81886
1606;5.60312
1608;4.93362
1610;4.80022
1612;4.95666
1614;5.00112
1616;4.48974
1618;3.10596
1620;0.840782
1622;-1.94164
1624;-4.65376
1626;-6.70772
1628;-7.67738
1630;-7.48351
1632;-6.41447
1634;-4.95467
1636;-3.54238
1638;-2.39002
1640;-1.48707
1642;-0.739382
1644;-0.128753
1646;0.249487
1648;0.292097
1650;0.00435485
1652;-0.411328
1654;-0.596786
1656;-0.231397
1658;0.737342
1660;1.98931
1662;2.94958
1664;3.07125
1666;2.13287
1668;0.409492
1670;-1.43102
1672;-2.67698
1674;-2.95992
1676;-2.40261
1678;-1.4426
1680;-0.601192
1682;-0.195093
1684;-0.168283
1686;-0.23598
1688;-0.140665
1690;0.18954
1692;0.664565
1694;1.14259
1696;1.52215
1698;1.78456
1700;1.99703
1702;2.277
1704;2.69776
1706;3.21806
1708;3.71895
1710;4.07289
1712;4.18301
1714;3.99508
1716;3.50922
1718;2.7284
1720;1.5832
1722;0.0259525
1724;-1.85666
1726;-3.81888
1728;-5.51853
1730;-6.61071
1732;-6.80314
1734;-5.99798
1736;-4.44281
1738;-2.69663
1740;-1.36563
1742;-0.764666
1744;-0.759655
1746;-0.906956
1748;-0.776686
1750;-0.213395
1752;0.613571
1754;1.39487
1756;1.93656
1758;2.26644
1760;2.56582
1762;2.96747
1764;3.41364
1766;3.69274
1768;3.58667
1770;3.03004
1772;2.15874
1774;1.19804
1776;0.297608
1778;-0.5462
1780;-1.41695
1782;-2.33265
1784;-3.15916
1786;-3.66096
1788;-3.66684
1790;-3.21033
1792;-2.52874
1794;-1.90664
1796;-1.48511
1798;-1.18159
1800;-0.779117
1802;-0.125587
1804;0.694731
1806;1.36916
1808;1.54484
1810;1.06555
1812;0.103689
1814;-0.920507
1816;-1.56892
1818;-1.66083
1820;-1.32072
1822;-0.818041
1824;-0.389302
1826;-0.0951341
1828;0.17955
1830;0.582578
1832;1.13419
1834;1.67698
1836;1.96789
1838;1.8146
1840;1.19935
1842;0.345811
1844;-0.301022
1846;-0.205284
1848;1.01574
1850;3.3888
1852;6.5234
1854;9.71985
1856;12.1924
1858;13.2714
1860;12.5487
1862;9.93505
1864;5.67338
1866;0.271357
1868;-5.68634
1870;-11.6219
1872;-17.0162
1874;-21.3624
1876;-24.1352
1878;-24.8663
1880;-23.2971
1882;-19.5225
1884;-14.0061
1886;-7.49022
1888;-0.818789
1890;5.24765
1892;10.1665
1894;13.6877
1896;15.8249
1898;16.8143
1900;17.0015
1902;16.6888
1904;15.9972
1906;14.8452
1908;13.06
1910;10.5382
1912;7.36238
1914;3.80536
1916;0.223952
1918;-3.06729
1920;-5.87255
1922;-8.11213
1924;-9.71112
1926;-10.551
1928;-10.5358
1930;-9.76297
1932;-8.61445
1934;-7.67462
1936;-7.44975
1938;-8.00807
1940;-8.80004
1942;-8.81226
1944;-7.00644
1946;-2.84223
1948;3.37257
1950;10.4814
1952;16.7474
1954;20.3598
1956;20.0251
1958;15.4434
1960;7.47314
1962;-2.06331
1964;-10.8552
1966;-16.7343
1968;-18.2977
1970;-15.3273
1972;-8.82535
1974;-0.635215
1976;7.17722
1978;12.9318
1980;15.722
1982;15.4808
1984;12.7601
1986;8.38163
1988;3.13119
1990;-2.38976
1992;-7.74986
1994;-12.5799
1996;-16.4805
1998;-19.0228
2000;-19.8262
2002;-18.6571
2004;-15.5069
2006;-10.6361
2008;-4.59102
2010;1.823
2012;7.67075
2014;12.1308
2016;14.7458
2018;15.5283
2020;14.8928
2022;13.4305
2024;11.6435
2026;9.81126
2028;8.0062
2030;6.17118
2032;4.19011
2034;1.95681
2036;-0.545351
2038;-3.19304
2040;-5.726
2042;-7.81387
2044;-9.15858
2046;-9.58636
2048;-9.09405
2050;-7.84005
2052;-6.08727
2054;-4.12023
2056;-2.17621
2058;-0.428869
2060;0.975815
2062;1.88487
2064;2.16496
2066;1.79165
2068;0.929264
2070;-0.0881819
2072;-0.88695
2074;-1.21277
2076;-1.01524
2078;-0.416427
2080;0.39113
2082;1.23643
2084;2.00783
2086;2.64217
2088;3.09227
2090;3.30148
2092;3.2029
2094;2.75278
2096;1.99017
2098;1.07912
2100;0.273585
