id;value
100;10.7416
102;11.0203
104;10.156
106;8.46542
108;5.84674
110;1.98435
112;-3.23261
114;-9.29695
116;-14.9669
118;-18.7202
120;-19.4606
122;-16.9136
124;-11.5896
126;-4.73506
128;1.9313
130;7.10327
132;10.2345
134;11.2239
136;10.3539
138;8.33404
140;6.02343
142;4.07196
144;2.80695
146;2.23614
148;2.08523
150;1.93132
152;1.44551
154;0.507955
156;-0.744771
158;-2.01117
160;-2.99646
162;-3.46776
164;-3.28948
166;-2.48015
168;-1.26799
170;-0.0806491
172;0.635271
174;0.617241
176;-0.11311
178;-1.25546
180;-2.36876
182;-3.05056
184;-3.06799
186;-2.42022
188;-1.31157
190;-0.0330069
192;1.16992
194;2.16936
196;2.94215
198;3.49828
200;3.80951
202;3.77389
204;3.24015
206;2.07152
208;0.255628
210;-1.97723
212;-4.11016
214;-5.4706
216;-5.52478
218;-4.17324
220;-1.84593
222;0.731075
224;2.83228
226;3.96246
228;4.00705
230;3.14545
232;1.67295
234;-0.0949339
236;-1.81074
238;-3.10459
240;-3.61238
242;-3.08156
244;-1.52695
246;0.721536
248;3.11023
250;5.06623
252;6.19574
254;6.36746
256;5.6165
258;3.93307
260;1.25128
262;-2.35762
264;-6.48792
266;-10.3163
268;-12.7706
270;-12.9115
272;-10.3806
274;-5.63665
276;0.131101
278;5.36309
280;8.73222
282;9.65485
284;8.42195
286;5.96103
288;3.37282
290;1.50275
292;0.651619
294;0.573869
296;0.736814
298;0.570496
300;-0.209893
302;-1.4927
304;-2.95982
306;-4.2266
308;-4.91752
310;-4.75396
312;-3.68946
314;-1.91787
316;0.175526
318;2.09865
320;3.44174
322;4.01216
324;3.88103
326;3.30598
328;2.60673
330;2.05478
332;1.7424
334;1.54223
336;1.18665
338;0.41874
340;-0.840035
342;-2.41278
344;-3.92355
346;-4.94081
348;-5.15481
350;-4.49016
352;-3.14838
354;-1.57776
356;-0.300546
358;0.35262
360;0.432405
362;0.311336
364;0.423104
366;1.00105
368;1.97327
370;3.05338
372;3.92516
374;4.39774
376;4.44787
378;4.15516
380;3.59729
382;2.79091
384;1.72792
386;0.452494
388;-0.886796
390;-2.05042
392;-2.81605
394;-3.10687
396;-3.04381
398;-2.872
400;-2.81658
402;-2.96298
404;-3.23238
406;-3.45114
408;-3.43286
410;-3.0284
412;-2.15293
414;-0.811346
416;0.868439
418;2.6221
420;4.0794
422;4.85371
424;4.67346
426;3.51504
428;1.67807
430;-0.278244
432;-1.75103
434;-2.36486
436;-2.13512
438;-1.41491
440;-0.671133
442;-0.208805
444;-0.0435868
446;-0.00497408
448;0.0604933
450;0.155917
452;0.164683
454;-0.0101933
456;-0.296185
458;-0.383297
460;0.200014
462;1.8726
464;4.72744
466;8.35692
468;11.9296
470;14.4637
472;15.137
474;13.4944
476;9.48214
478;3.39969
480;-4.17576
482;-12.4274
484;-20.3465
486;-26.844
488;-30.8223
490;-31.376
492;-28.1456
494;-21.5313
496;-12.7263
498;-3.43876
500;4.68791
502;10.6182
504;14.1703
506;15.8692
508;16.5268
510;16.8184
512;17.0414
514;17.123
516;16.8172
518;15.8973
520;14.2635
522;11.9173
524;8.88645
526;5.21519
528;1.01296
530;-3.40584
532;-7.47207
534;-10.5149
536;-12.0688
538;-12.184
540;-11.5053
542;-11.0469
544;-11.6665
546;-13.4987
548;-15.7482
550;-16.95
552;-15.6403
554;-11.0989
556;-3.78537
558;4.7268
560;12.2872
562;16.9161
564;17.4706
566;13.976
568;7.53679
570;0.00787087
572;-6.51725
574;-10.279
576;-10.3032
578;-6.64354
580;-0.342663
582;6.83605
584;12.8605
586;15.962
588;15.1278
590;10.3958
592;2.85472
594;-5.66952
596;-13.1529
598;-17.9388
600;-19.142
602;-16.8
604;-11.7558
606;-5.33026
608;1.09792
610;6.45314
612;10.1626
614;12.1698
616;12.7989
618;12.5471
620;11.8798
622;11.0835
624;10.212
626;9.12842
628;7.63999
630;5.65455
632;3.26592
634;0.730159
636;-1.63574
638;-3.58043
640;-5.02125
642;-6.04974
644;-6.85494
646;-7.6116
648;-8.37135
650;-9.01428
652;-9.28447
654;-8.91472
656;-7.76965
658;-5.92044
660;-3.61927
662;-1.20014
664;1.02364
666;2.82115
668;4.064
670;4.72186
672;4.85116
674;4.57773
676;4.0639
678;3.46673
680;2.90456
682;2.4411
684;2.08559
686;1.80681
688;1.55795
690;1.30155
692;1.01998
694;0.70426
696;0.336396
698;-0.109113
700;-0.634473
702;-1.18341
704;-1.63939
706;-1.86972
708;-1.79085
710;-1.4072
712;-0.804726
714;-0.120226
716;0.485719
718;0.851477
720;0.855116
722;0.463572
724;-0.236021
726;-1.04735
728;-1.7293
730;-2.08896
732;-2.05838
734;-1.7167
736;-1.25518
738;-0.900631
740;-0.825125
742;-1.07875
744;-1.57566
746;-2.14145
748;-2.58985
750;-2.78363
752;-2.65927
754;-2.22548
756;-1.5568
758;-0.783449
760;-0.0635453
762;0.471044
764;0.773419
766;0.89829
768;0.963725
770;1.09243
772;1.37391
774;1.82832
776;2.37436
778;2.89077
780;3.28375
782;3.49139
784;3.47783
786;3.22112
788;2.71978
790;2.00379
792;1.14454
794;0.253382
796;-0.538554
798;-1.11349
800;-1.40704
802;-1.4423
804;-1.33547
806;-1.2565
808;-1.35055
810;-1.65891
812;-2.08496
814;-2.42843
816;-2.47589
818;-2.10108
820;-1.32725
822;-0.329419
824;0.62321
826;1.26038
828;1.4055
830;1.03654
832;0.287262
834;-0.611068
836;-1.41461
838;-1.93839
840;-2.09091
842;-1.87223
844;-1.35364
846;-0.651216
848;0.107893
850;0.817269
852;1.4108
854;1.86136
856;2.16749
858;2.34367
860;2.41228
862;2.40504
864;2.3596
866;2.28896
868;2.15072
870;-4.24631
872;-2.41502
874;0.40148
876;3.02324
878;4.3173
880;3.81723
882;1.41466
884;-2.40047
886;-6.05467
888;-7.94933
890;-7.4882
892;-4.36497
894;0.932589
896;6.3273
898;10.018
900;11.4491
902;10.4729
904;7.78079
906;5.38649
908;4.86238
910;6.14621
912;8.58449
914;11.2312
916;12.3959
918;10.9482
920;7.47208
922;2.99065
924;-1.6569
926;-5.51982
928;-8.02436
930;-9.09698
932;-8.89643
934;-7.651
936;-5.69141
938;-3.50682
940;-1.77996
942;-1.10187
944;-1.96413
946;-4.85242
948;-9.05093
950;-12.3196
952;-12.7961
954;-9.14963
956;-0.377861
958;12.0471
960;24.4027
962;33.4301
964;36.5311
966;31.9589
968;20.7118
970;5.85564
972;-9.81687
974;-23.9754
976;-34.4144
978;-39.6088
980;-38.1942
982;-28.7432
984;-10.6612
986;14.171
988;38.5673
990;54.4678
992;59.1604
994;52.5173
996;36.4738
998;16.5858
1000;-1.63158
1002;-15.7889
1004;-25.354
1006;-30.1995
1008;-30.6467
1010;-27.4478
1012;-22.1201
1014;-16.6704
1016;-12.587
1018;-11.2176
1020;-12.6878
1022;-14.7549
1024;-15.0505
1026;-12.7486
1028;-7.72911
1030;-1.13153
1032;4.19924
1034;6.26117
1036;5.3627
1038;2.55229
1040;-0.54449
1042;-1.51478
1044;0.540208
1046;4.31672
1048;8.34852
1050;11.1422
1052;10.9986
1054;7.94535
1056;3.67986
1058;-0.41063
1060;-3.14029
1062;-3.4557
1064;-2.14166
1066;-1.39933
1068;-2.04396
1070;-2.82037
1072;-2.44889
1074;-0.0335588
1076;5.40904
1078;12.3361
1080;15.7982
1082;12.6012
1084;3.9511
1086;-7.70207
1088;-18.5577
1090;-22.9467
1092;-18.6722
1094;-8.41108
1096;4.41546
1098;16.117
1100;23.056
1102;24.1626
1104;20.2013
1106;12.3646
1108;2.82762
1110;-6.12092
1112;-12.5492
1114;-14.5375
1116;-11.4102
1118;-3.65926
1120;7.12272
1122;16.2995
1124;18.6647
1126;13.1481
1128;1.33345
1130;-13.2666
1132;-23.453
1134;-23.8966
1136;-16.3315
1138;-5.21159
1140;5.27406
1142;10.2819
1144;8.24776
1146;3.84933
1148;1.84531
1150;1.09515
1152;-1.93628
1154;-8.54605
1156;-18.8997
1158;-30.6224
1160;-34.3952
1162;-21.4047
1164;5.92755
1166;38.8973
1168;68.3923
1170;82.396
1172;73.5016
1174;46.9362
1176;11.6533
1178;-23.2916
1180;-46.1819
1182;-51.3852
1184;-41.8
1186;-22.0081
1188;0.073998
1190;14.5024
1192;17.2025
1194;7.95954
1196;-10.7139
1198;-30.0932
1200;-41.5235
1202;-42.3216
1204;-32.344
1206;-14.7488
1208;2.43668
1210;13.1253
1212;15.9448
1214;11.2073
1216;2.48087
1218;-3.82858
1220;-4.80246
1222;-1.92362
1224;2.79086
1226;6.9538
1228;8.12319
1230;6.57126
1232;4.65775
1234;3.58254
1236;3.03341
1238;2.59469
1240;1.87416
1242;0.516279
1244;-0.996783
1246;-1.49934
1248;-0.738691
1250;-0.138249
1252;-1.01007
1254;-3.22052
1256;-5.95412
1258;-7.87931
1260;-7.14771
1262;-3.31528
1264;1.87
1266;6.47176
1268;9.26384
1270;9.37695
1272;6.77303
1274;2.02209
1276;-4.04718
1278;-10.1554
1280;-14.6522
1282;-15.1848
1284;-9.6589
1286;0.883701
1288;12.6433
1290;21.6925
1292;23.8793
1294;17.119
1296;5.22671
1298;-5.68155
1300;-11.8604
1302;-11.3327
1304;-4.96215
1306;2.48465
1308;6.81796
1310;7.48207
1312;5.4318
1314;1.9256
1316;-1.39309
1318;-3.79339
1320;-5.82611
1322;-7.84511
1324;-9.28286
1326;-9.602
1328;-8.782
1330;-6.86986
1332;-3.58832
1334;1.78241
1336;9.4956
1338;17.8602
1340;23.9436
1342;25.1492
1344;19.8253
1346;9.25605
1348;-1.69913
1350;-8.59033
1352;-10.321
1354;-8.13604
1356;-4.90413
1358;-4.02771
1360;-6.46289
1362;-10.1637
1364;-12.9967
1366;-13.6593
1368;-11.3333
1370;-7.13617
1372;-3.06058
1374;-0.542684
1376;-0.657426
1378;-3.4064
1380;-7.33679
1382;-10.2545
1384;-9.95817
1386;-4.7822
1388;4.90012
1390;16.4202
1392;26.6216
1394;32.7906
1396;33.0718
1398;27.3398
1400;16.7826
1402;2.89784
1404;-12.6742
1406;-27.6877
1408;-38.9785
1410;-43.5098
1412;-39.6579
1414;-27.6986
1416;-10.2104
1418;8.33504
1420;23.2901
1422;31.642
1424;32.9777
1426;29.4226
1428;23.5192
1430;16.4055
1432;8.41212
1434;-0.78616
1436;-11.4982
1438;-22.4181
1440;-30.2067
1442;-31.4294
1444;-24.9694
1446;-12.1075
1448;3.66638
1450;17.3865
1452;25.071
1454;25.0841
1456;18.1261
1458;6.82375
1460;-5.41724
1462;-15.1681
1464;-19.4365
1466;-16.7159
1468;-7.70502
1470;4.60071
1472;15.3443
1474;19.8492
1476;15.8492
1478;4.50276
1480;-9.50929
1482;-19.89
1484;-22.2944
1486;-16.3883
1488;-5.48222
1490;5.06217
1492;10.834
1494;10.9388
1496;7.53728
1498;3.76789
1500;1.76971
1502;1.50804
1504;1.27966
1506;-0.503009
1508;-3.96771
1510;-7.64465
1512;-9.33387
1514;-7.3935
1516;-1.66905
1518;6.35177
1520;14.0702
1522;18.6962
1524;18.2548
1526;12.3146
1528;2.36787
1530;-8.31006
1532;-15.8672
1534;-17.7398
1536;-14.0308
1538;-7.52327
1540;-2.25221
1542;-1.3768
1544;-5.3358
1546;-11.6613
1548;-16.5492
1550;-17.0302
1552;-12.6068
1554;-5.12863
1556;2.85406
1558;9.71288
1560;15.3393
1562;20.3788
1564;24.7086
1566;26.668
1568;23.8862
1570;15.2057
1572;2.23013
1574;-10.777
1576;-18.9419
1578;-19.5302
1580;-13.5098
1582;-4.87734
1584;1.79774
1586;3.93312
1588;2.02753
1590;-1.36966
1592;-3.88713
1594;-4.71698
1596;-4.40203
1598;-3.65781
1600;-2.42705
1602;-0.073579
1604;3.62332
1606;7.66523
1608;10.138
1610;9.54089
1612;6.08476
1614;1.72684
1616;-1.23003
1618;-1.80432
1620;-0.902529
1622;-0.382033
1624;-1.48895
1626;-3.80516
1628;-5.56097
1630;-5.10002
1632;-2.10544
1634;2.1382
1636;5.63091
1638;7.15636
1640;6.86457
1642;5.54604
1644;3.75642
1646;1.62857
1648;-0.802099
1650;-3.12651
1652;-4.41742
1654;-3.80262
1656;-1.33124
1658;1.75519
1660;3.80497
1662;3.91939
1664;2.54057
1666;1.21619
1668;1.50706
1670;3.7248
1672;6.45251
1674;7.20413
1676;3.93728
1678;-3.46812
1680;-12.8574
1682;-20.7014
1684;-23.7123
1686;-20.334
1688;-11.3621
1690;0.191977
1692;10.4055
1694;16.3177
1696;16.8875
1698;12.9727
1700;6.54079
1702;-0.0739056
1704;-4.7497
1706;-6.23801
1708;-4.4528
1710;-0.445296
1712;3.90159
1714;6.49656
1716;5.9793
1718;2.44339
1720;-2.57214
1722;-6.68599
1724;-7.75538
1726;-5.03957
1728;0.426963
1730;6.41876
1732;10.447
1734;10.8502
1736;7.57803
1738;2.02191
1740;-3.91771
1742;-8.68358
1744;-11.3472
1746;-11.5732
1748;-9.54361
1750;-5.88852
1752;-1.60476
1754;2.14843
1756;4.41771
1758;4.8444
1760;3.83484
1762;2.3385
1764;1.26881
1766;0.856158
1768;0.519662
1770;-0.59337
1772;-2.75444
1774;-5.21725
1776;-6.62654
1778;-5.91766
1780;-3.13126
1782;0.586637
1784;3.68081
1786;5.05229
1788;4.59697
1790;3.01915
1792;1.21609
1794;-0.228581
1796;-1.11513
1798;-1.42679
1800;-1.12909
1802;-0.11394
1804;1.62473
1806;3.7311
1808;5.40304
1810;5.63304
1812;3.75803
1814;0.0361849
1816;-4.24972
1818;-7.46203
1820;-8.54732
1822;-7.52995
1824;-5.28377
1826;-2.82539
1828;-0.702191
1830;1.16658
1832;3.15866
1834;5.42367
1836;7.59862
1838;8.97356
1840;8.87596
1842;6.94443
1844;3.23331
1846;-1.71864
1848;-6.81853
1850;-10.6999
1852;-12.3421
1854;-11.5836
1856;-9.20545
1858;-6.36503
1860;-3.56834
1862;-0.112073
1864;5.19247
1866;12.3523
1868;19.0179
1870;21.0989
1872;15.0736
1874;0.895876
1876;-16.5627
1878;-29.1646
1880;-29.8782
1882;-17.3391
1884;3.14562
1886;22.4603
1888;31.9859
1890;27.6032
1892;11.3872
1894;-9.85363
1896;-27.9088
1898;-36.484
1900;-33.0463
1902;-19.0307
1904;0.896593
1906;20.6108
1908;34.4737
1910;38.9171
1912;33.6445
1914;21.6095
1916;7.70257
1918;-3.41517
1920;-8.99044
1922;-8.88738
1924;-5.24455
1926;-1.09693
1928;1.04729
1930;0.0380189
1932;-3.73884
1934;-8.68678
1936;-12.8548
1938;-14.8847
1940;-14.4533
1942;-12.0901
1944;-8.73151
1946;-5.29201
1948;-2.39203
1950;-0.306139
1952;0.957684
1954;1.57969
1956;1.91312
1958;2.38942
1960;3.32095
1962;4.72018
1964;6.24184
1966;7.31899
1968;7.38569
1970;6.04922
1972;3.25546
1974;-0.474967
1976;-4.11061
1978;-6.46517
1980;-6.50447
1982;-3.71149
1984;1.57223
1986;8.12501
1988;14.1729
1990;17.8877
1992;17.9465
1994;14.1548
1996;7.69466
1998;0.582573
2000;-5.26548
2002;-8.84295
2004;-10.2656
2006;-10.3382
2008;-9.86884
2010;-9.2402
2012;-8.47721
2014;-7.54284
2016;-6.54683
2018;-5.6552
2020;-4.81377
2022;-3.60663
2024;-1.47767
2026;1.76093
2028;5.44144
2030;8.10221
2032;8.27817
2034;5.40702
2036;0.28196
2038;-5.14756
2040;-8.68787
2042;-9.0291
2044;-6.31414
2046;-1.86481
2048;2.62539
2050;5.87023
2052;7.35755
2054;7.25112
2056;6.07154
2058;4.3798
2060;2.58538
2062;0.928352
2064;-0.428714
2066;-1.2822
2068;-1.36711
2070;-0.507549
2072;1.19873
2074;3.35737
2076;5.34133
2078;6.33396
2080;5.55577
2082;2.67157
2084;-1.88013
2086;-6.84259
2088;-10.5581
2090;-11.6455
2092;-9.60697
2094;-5.06672
2096;0.543519
2098;5.62877
2100;9.07506
